# Quasi-Isodynamic Stellarator surface s = 0.8
# X[m] Y[m] Z[m] |B|[T] Helical_Winding
1.2100000000000002 0.0 0.0 0.9424895527915783 0.0
1.2039275335524022 0.11857651231990556 0.011784918420649942 0.9581300834872667 0.47139673682599764
1.1747415984887253 0.233670632414756 0.020786740307563632 0.9520970671288222 0.8314696123025452
1.1261686060855736 0.3416195118387622 0.024879618166804923 0.8970758513779725 0.9951847266721968
1.0642652288705483 0.4408330917602871 0.02309698831278217 0.8582512541601032 0.9238795325112867
0.9956557679520484 0.5321890955440072 0.01585983210409114 0.8581541845577838 0.6343932841636455
0.9256766325214354 0.6185173514718961 0.004877258050403215 0.8677633154221702 0.1950903220161286
0.8570131646828779 0.7033325277161878 -0.007257116931361553 0.8727081487511648 -0.2902846772544621
0.7892438661763953 0.7892438661763952 -0.017677669529663688 0.8718127361391029 -0.7071067811865475
0.7194035588745309 0.8765957728091531 -0.02392350839330522 0.8785386096007595 -0.9569403357322088
0.6433420478045473 0.9628294161093018 -0.024519632010080762 0.9137986244889414 -0.9807852804032304
0.55740002565614 1.042822100730667 -0.019325261334068436 0.953998675306895 -0.7730104533627374
0.4598330917602872 1.110135286555637 -0.009567085809127261 0.9525204894142744 -0.3826834323650904
0.35151600396205845 1.1587929684343192 0.002450428508239023 0.9434144567756502 0.09801714032956091
0.23571599376719377 1.185024324391503 0.013889255825490048 0.9612363491475856 0.5555702330196018
0.11704745159143613 1.1884027194432487 0.02204803160870887 0.9435880580027427 0.8819212643483548
7.17643024300349e-17 1.172 0.025 0.8859029523818052 1.0
-0.11242695558099888 1.1414900361740141 0.02204803160870888 0.855958818923777 0.8819212643483552
-0.2194948263261207 1.1034750087066112 0.013889255825490058 0.8600689090519954 0.5555702330196023
-0.32262731624299734 1.063559727788593 0.002450428508239016 0.8692953207268707 0.09801714032956063
-0.42447775270095967 1.0247799474963097 -0.009567085809127247 0.8728410676723412 -0.38268343236508984
-0.5274949332542328 0.9868736080042965 -0.01932526133406843 0.8717713974935545 -0.7730104533627371
-0.6325034102383099 0.946608248668229 -0.024519632010080755 0.883056481671447 -0.9807852804032301
-0.7378190238491149 0.8990350818060261 -0.02392350839330523 0.9233432402572171 -0.9569403357322093
-0.839243866176395 0.8392438661763951 -0.017677669529663712 0.957443760821502 -0.7071067811865485
-0.9309856529594225 0.7640401799495696 -0.007257116931361548 0.9488504041640986 -0.2902846772544619
-1.0072259482063273 0.673006862149478 0.004877258050403222 0.9459480656174654 0.19509032201612886
-1.0638292035904642 0.5686285560687653 0.01585983210409112 0.962609828998476 0.6343932841636447
-1.0996205679298756 0.45547775270095986 0.02309698831278216 0.9331492066316052 0.9238795325112864
-1.1167889505681252 0.33877422444416505 0.024879618166804923 0.8761737476977066 0.9951847266721968
-1.1202520878111435 0.22283199484851945 0.020786740307563643 0.8551250116695559 0.8314696123025457
-1.1161600763117108 0.10993217228718019 0.011784918420649958 0.8620958149039598 0.47139673682599825
-1.11 1.3593579470535623e-16 1.5308084989341915e-17 0.8705779238067839 6.123233995736766e-16
-1.1049010323270947 -0.10882325324467504 -0.01178491842064997 0.872732726696188 -0.47139673682599875
-1.1006802520467693 -0.2189389146626617 -0.020786740307563625 0.8721866586010324 -0.831469612302545
-1.0939329728131513 -0.33184093939159015 -0.02487961816680492 0.8889642051122297 -0.9951847266721967
-1.0791352865556372 -0.4469924713267211 -0.023096988312782174 0.932688280460526 -0.9238795325112868
-1.0504015653361354 -0.5614513338923073 -0.015859832104091177 0.9587629846719848 -0.634393284163647
-1.0033328680204698 -0.6704055891335807 -0.004877258050403208 0.9455495843784714 -0.19509032201612833
-0.936371087118672 -0.7684598915434695 0.007257116931361518 0.9496933034192743 0.2902846772544607
-0.8512438661763952 -0.851243866176395 0.01767766952966369 0.9617041332496069 0.7071067811865476
-0.7523888603851272 -0.9167884789923962 0.02392350839330521 0.9214209727605853 0.9569403357322084
-0.6455808928009299 -0.9661800844326032 0.024519632010080762 0.8682492491388625 0.9807852804032304
-0.536240403780175 -1.0032352325575162 0.01932526133406845 0.8554224872742195 0.7730104533627379
-0.4279924713267218 -1.033265228870548 0.009567085809127317 0.8641085599307208 0.3826834323650926
-0.3219444472682943 -1.0613086104644056 -0.0024504285082389853 0.8715832725997233 -0.09801714032955941
-0.21689355331022436 -1.0903975261439915 -0.013889255825489997 0.8724513451480045 -0.5555702330195998
-0.11035231397314453 -1.1204258464362482 -0.02204803160870891 0.8732952613636809 -0.8819212643483563
-2.108841788131742e-16 -1.148 -0.025 0.8962101015892985 -1.0
0.11497280998358116 -1.1673385297054826 -0.022048031608708885 0.9412574701693819 -0.8819212643483554
0.23311472075129686 -1.1719468418288834 -0.013889255825490035 0.9581028655297729 -0.5555702330196014
0.3508331349873548 -1.1565418511101315 -0.0024504285082390313 0.9432712551865875 -0.09801714032956124
0.46334781038604883 -1.1186205679298755 0.009567085809127273 0.9540135874000488 0.3826834323650909
0.5661454961820817 -1.0591837252838872 0.01932526133406842 0.9582123113288089 0.7730104533627367
0.6564195303671665 -0.9824012518736763 0.024519632010080752 0.9091444100766148 0.98078528040323
0.7339733954105426 -0.8943491699955237 0.023923508393305225 0.8622862889503757 0.9569403357322089
0.801243866176395 -0.8012438661763953 0.017677669529663723 0.856527762008371 0.7071067811865489
0.862398598842127 -0.7077522393100886 0.007257116931361646 0.8660186987673991 0.29028467725446583
0.9217835523355777 -0.615916078455999 -0.004877258050403251 0.8722942558150081 -0.19509032201613002
0.982228129697719 -0.5250118733675497 -0.01585983210409107 0.8720984487202827 -0.6343932841636428
1.0437799474963094 -0.43234781038604925 -0.023096988312782157 0.8753393236542275 -0.9238795325112862
1.1033126283305994 -0.3346862267861878 -0.024879618166804923 0.9046005539525372 -0.9951847266721968
1.1551697627243511 -0.22977755222889906 -0.020786740307563653 0.9485085154278916 -0.831469612302546
1.1926684895677864 -0.11746759327740057 -0.011784918420649932 0.9558345184263838 -0.47139673682599725
1.2092295562675515 0.0 0.0156827424527297 0.9427316965748691 0.0
1.2031336920300115 0.11849832575432209 0.02802212039463209 0.9611804283192639 0.469126832692346
1.1739388367471946 0.23351095317630632 0.037447462044319216 0.9581533725840844 0.827465858855546
1.1253763085115491 0.34137917099725185 0.041732902551631396 0.9028688160755354 0.9903926402016152
1.0635041105606806 0.44051782623376945 0.03986640312294108 0.8611498581844179 0.919430800040282
0.9949439683672474 0.5318086307393659 0.03228875154351682 0.8593842268734239 0.6313385071030749
0.9250266588473246 0.6180830529476453 0.020789466848772843 0.8683594359915848 0.19415090879201183
0.8564305697927003 0.7028544044461738 0.008084191034016483 0.8733822482344332 -0.2888868771906088
0.7887279718286251 0.788727971828625 -0.0028266300921285376 0.8722792811926613 -0.7037018687631912
0.7189498734174706 0.8760429554802173 -0.009366324602669292 0.87715390815519 -0.9523324064572586
0.6429454980270717 0.9622359374271482 -0.009990494778900474 0.909592470801834 -0.9760625312022029
0.5570578969102372 1.0421820228671925 -0.004551738170340406 0.9495484175060878 -0.7692881967445468
0.45954671787373635 1.1094439188348164 0.005665542215299316 0.9506572121207372 -0.38084070704023065
0.35129071185146177 1.1580502798777226 0.018248459278549338 0.9441499196815655 0.09754516100806444
0.23555942473104918 1.1842371986928493 0.030225463144133456 0.9649603968770534 0.5528950104948213
0.11696693991679717 1.1875852706924477 0.03876809486536564 0.9499461083561997 0.8776745724069158
7.171358815205083e-17 1.1711717729876179 0.04185894813668443 0.8911766404922536 0.9951847266721969
-0.11234644390635995 1.1406725874232133 0.03876809486536566 0.8583798945350974 0.8776745724069162
-0.2193382572899761 1.1026878830079574 0.030225463144133467 0.8611202183742769 0.5528950104948217
-0.32240202413240066 1.0628170392319967 0.01824845927854933 0.8698546727521328 0.09754516100806417
-0.4241913788144088 1.024088579775489 0.0056655422152993296 0.8735512421176859 -0.3808407070402301
-0.52715280450833 0.9862335301408218 -0.004551738170340399 0.8720255431290818 -0.7692881967445465
-0.6321068604608343 0.9460147699860754 -0.009990494778900467 0.8810916356925003 -0.9760625312022025
-0.7373653383920548 0.8984822644770902 -0.009366324602669302 0.9187832325166074 -0.952332406457259
-0.8387279718286248 0.8387279718286249 -0.0028266300921285636 0.9533799166964191 -0.7037018687631922
-0.9304030580692448 0.7635620566795556 0.008084191034016489 0.9475536132079695 -0.28888687719060857
-1.0065759745322165 0.6725725636252272 0.02078946684877285 0.9471985158074124 0.19415090879201208
-1.0631174040056632 0.568248091264124 0.032288751543516805 0.9670088447636124 0.6313385071030742
-1.098859449620008 0.4551624871744422 0.03986640312294107 0.9396348085868086 0.9194308000402817
-1.115996652994101 0.33853388360265463 0.041732902551631396 0.8808516922854874 0.9903926402016152
-1.1194493260696128 0.22267231561006978 0.03744746204431923 0.8571491670466124 0.8274658588555465
-1.11536623478932 0.10985398572159674 0.028022120394632106 0.8629943893044923 0.4691268326923466
-1.1092295562675514 1.3584144256026958e-16 0.015682742452729714 0.8711346448007928 6.093748950397198e-16
-1.1041614061788996 -0.10875040642737964 0.0033433645108272812 0.8734525643862967 -0.4691268326923471
-1.0999717340439712 -0.218797981669394 -0.006081977138859813 0.8721509517303917 -0.8274658588555458
-1.0932507330191914 -0.3316339842126675 -0.010367417646171991 0.8863907582789207 -0.9903926402016151
-1.0784728104747834 -0.4467180647492836 -0.008500918217481687 0.9279192073840433 -0.9194308000402821
-1.0497544234996758 -0.5611054293741802 -0.000923266638057467 0.9551837510809595 -0.6313385071030765
-1.002701640591541 -0.6699838164499018 0.010576018056686563 0.9447903215717313 -0.19415090879201155
-0.9357625598910289 -0.767960486154101 0.023281293871442878 0.9514974418666209 0.2888868771906074
-0.8506701885486914 -0.8506701885486911 0.03419211499758794 0.9667436104818043 0.7037018687631913
-0.7518650171828049 -0.9161501742035111 0.04073180950812868 0.9278487923478532 0.9523324064572581
-0.6451213713704758 -0.9654923620117171 0.041355979684359875 0.8723042882746295 0.9760625312022029
-0.5358561632033094 -1.0025163689997307 0.03591722307579982 0.8571248364134235 0.7692881967445473
-0.42768917310931753 -1.032533002200647 0.02569994269016014 0.8648783098677157 0.3808407070402329
-0.3217224433584579 -1.060576761653018 0.0131170256269101 0.8721658984133881 -0.09754516100806296
-0.21674951011465157 -1.0896733720983165 0.0011400217613259968 0.8731412167203185 -0.5528950104948193
-0.11028179226490462 -1.1197098275164632 -0.007402609959906286 0.8728879701482061 -0.8776745724069173
-2.107532652118665e-16 -1.147287339547485 -0.010493463231225027 0.8930341389629509 -0.9951847266721969
0.11490228827534124 -1.1666225107856976 -0.007402609959906261 0.9364382243244743 -0.8776745724069164
0.2329706775557241 -1.1712226877832084 0.0011400217613259569 0.9550732912431898 -0.5528950104948208
0.3506111310775184 -1.155810002298744 0.013117025626910049 0.9430212591916199 -0.09754516100806478
0.46304451216864456 -1.1178883412599745 0.0256999426901601 0.9564187153504387 0.38084070704023115
0.5657612556052162 -1.0584648617261017 0.03591722307579979 0.9638175249909251 0.7692881967445461
0.6559600089367124 -0.9817135294527903 0.04135597968435986 0.9153341398776145 0.9760625312022024
0.7334495522082202 -0.8937108652066387 0.04073180950812869 0.8657365449138772 0.9523324064572587
0.8006701885486912 -0.8006701885486917 0.03419211499758797 0.8579704799484339 0.7037018687631926
0.8617900716144837 -0.70725283392072 0.02328129387144301 0.8666861013767165 0.28888687719061246
0.9211523249066489 -0.6154943057723201 0.010576018056686516 0.8729207035925135 -0.19415090879201324
0.9815809878612597 -0.5246659688494225 -0.0009232666380573542 0.872707254355597 -0.6313385071030723
1.0431174714154556 -0.4320734038086118 -0.008500918217481668 0.8744795978869189 -0.9194308000402814
1.1026303885366395 -0.33447927160726515 -0.010367417646171995 0.900867276645446 -0.9903926402016152
1.154461244721553 -0.22963661923563136 -0.006081977138859844 0.9437992478631433 -0.8274658588555468
1.1919288634195908 -0.11739474646010514 0.0033433645108273194 0.9533865802673355 -0.4691268326923456
1.206925644864517 0.0 0.031214451522580525 0.9434610454083084 0.0
1.2007598125906573 0.11826451903693938 0.0441029492374473 0.964653918561837 0.46233898070905394
1.1715382825570082 0.23303345325931318 0.0539477319230729 0.9648404382226775 0.8154931568489171
1.1230070460482284 0.3406604630864081 0.058423880594889586 0.9098824402325788 0.9760625312022028
1.061228085616471 0.4395750658335784 0.05647431930138354 0.8655929660876746 0.9061274463528878
0.9928154246319554 0.5306709004094939 0.04855945150777992 0.8621225003804951 0.6222035950943673
0.9230829974267853 0.6167843399070931 0.036548432377916024 0.8702012415491953 0.19134171618254522
0.8546883958294385 0.701424639224591 0.02327775381727592 0.8751480430578394 -0.28470693857777885
0.7871852571299001 0.7871852571299 0.011881385717219181 0.8740698361408822 -0.6935199226610737
0.7175931862852515 0.8743898274264884 0.0050506655502966825 0.8771957325082927 -0.9385529955102759
0.6417596676857782 0.9604612169048247 0.004398718918309223 0.9065333706331942 -0.9619397662556434
0.5560348055593779 1.040267953576495 0.010079507889291656 0.9457478577327242 -0.7581572742560008
0.45869035415115905 1.107376473921446 0.020751471704849152 0.949261494847628 -0.37533027751786585
0.35061700520585404 1.1558293667047281 0.03389434637645948 0.9453663150121813 0.09613376846245118
0.23509122546802286 1.181883402047653 0.046404343856019006 0.96910936296907 0.5448951067758183
0.11672618026431922 1.1851407969183776 0.0553271347727445 0.9570383639126984 0.8649753945474727
7.156193372431889e-17 1.1686950682293555 0.05855553538677406 0.8977750580259027 0.9807852804032304
-0.112105684253882 1.138228113649143 0.05532713477274451 0.8623569671382014 0.8649753945474731
-0.21887005802694978 1.100334086362761 0.04640434385601902 0.8636460667595105 0.5448951067758186
-0.32172831748679287 1.0605961260590022 0.033894346376459474 0.871596302997532 0.0961337684624509
-0.4233350150918315 1.0220211348621187 0.020751471704849166 0.875383288586453 -0.3753302775178653
-0.5261297131574707 0.9843194608501242 0.010079507889291663 0.8736465371243283 -0.7581572742560004
-0.6309210301195407 0.9442400494637518 0.00439871891830923 0.8805324924989527 -0.961939766255643
-0.7360086512598356 0.8968291364233614 0.005050665550296672 0.9152699401458104 -0.9385529955102764
-0.8371852571298999 0.8371852571299 0.01188138571721915 0.9498945324539436 -0.6935199226610747
-0.928660884105983 0.7621322914579728 0.023277753817275926 0.946728627069227 -0.2847069385777786
-1.0046323131116772 0.671273850584675 0.036548432377916024 0.948916682393625 0.19134171618254547
-1.0609888602703712 0.5671103609342522 0.04855945150777989 0.9718518463567262 0.6222035950943665
-1.0965834246757984 0.45421972677425115 0.056474319301383524 0.946972246631775 0.9061274463528874
-1.11362739053078 0.3378151756918109 0.058423880594889586 0.8869397260467052 0.9760625312022028
-1.1170487718794262 0.2221948156930766 0.05394773192307292 0.8607297766547516 0.8154931568489175
-1.1129923553499657 0.10962017900421402 0.044102949237447314 0.8653231600819653 0.4623389807090545
-1.1069256448645168 1.3555929478774505e-16 0.03121445152258054 0.8728210327013528 6.005577771483277e-16
-1.1019496507384416 -0.1085325675301661 0.018325953807713728 0.8753391527655053 -0.462338980709055
-1.0978530034512586 -0.2183765399513578 0.008481171122088155 0.873515242331505 -0.8154931568489169
-1.0912105839794777 -0.3310151117674056 0.004005022450271466 0.8851846243427962 -0.9760625312022027
-1.0764917622390267 -0.4458974877023179 0.005954583743777508 0.9240909630582008 -0.9061274463528879
-1.047819230319946 -0.5600710470693986 0.013869451537381085 0.9521297356970774 -0.6222035950943688
-1.0008140373699588 -0.6687225603003729 0.025880470667245036 0.9445107366916836 -0.19134171618254495
-0.9339428386579558 -0.7664670795328973 0.039151149227885096 0.953751945232583 0.2847069385777775
-0.8489546804947389 -0.8489546804947385 0.05054751732794187 0.9722670243485031 0.6935199226610738
-0.7502985324722377 -0.9142414070609054 0.057378237494864356 0.9352537393440531 0.9385529955102755
-0.6437472325216883 -0.9634358178919193 0.058030184126851826 0.877833880258323 0.9619397662556434
-0.5347071419195152 -1.0003667013754063 0.05234939515586941 0.8603754682337763 0.7581572742560011
-0.4267821993847381 -1.0303433739340513 0.04167743134031196 0.8670234173209717 0.375330277517868
-0.32105856964796015 -1.0583882633229782 0.028534556668701614 0.8738432029317902 -0.09613376846244971
-0.21631876774264855 -1.0875078839606136 0.0160245591891421 0.8750506332628621 -0.5448951067758163
-0.11007090630278632 -1.1175686664107214 0.007101768272416514 0.8739026380586838 -0.8649753945474741
-2.103617851774887e-16 -1.145156221499678 0.00387336765838699 0.8911688219023941 -0.9807852804032304
0.11469140231322295 -1.1644813496799558 0.007101768272416539 0.932454459719849 -0.8649753945474733
0.23253993518372107 -1.1690571996455057 0.016024559189142057 0.9525340370883846 -0.5448951067758179
0.34994725736702054 -1.153621503968704 0.028534556668701562 0.9432573849756453 -0.0961337684624515
0.46213753844406513 -1.1156987129933789 0.04167743134031191 0.9592574280766238 0.37533027751786635
0.5646122343214218 -1.0563151941017772 0.05234939515586938 0.9699691308112166 0.758157274256
0.6545858700879249 -0.9796569853329925 0.05803018412685182 0.9226264584089446 0.9619397662556429
0.7318830674976531 -0.8918020980640329 0.05737823749486437 0.8707053341450489 0.938552995510276
0.7989546804947385 -0.798954680494739 0.05054751732794191 0.8609455773471141 0.6935199226610751
0.8599703503814107 -0.7057594272995164 0.039151149227885235 0.8686657910601117 0.2847069385777825
0.9192647216850668 -0.6142330496227912 0.02588047066724499 0.8746288722980134 -0.1913417161825466
0.9796457946815299 -0.5236315865446409 0.013869451537381203 0.8745897716591925 -0.6222035950943646
1.0411364231796991 -0.4312528267616462 0.0059545837437775286 0.8750512157404229 -0.9061274463528872
1.1005902394969258 -0.33386039916200333 0.004005022450271463 0.898370409371714 -0.9760625312022028
1.1523425141288404 -0.2292151775175952 0.00848117112208812 0.9398266663705304 -0.8154931568489179
1.189717107979133 -0.11717690756289162 0.018325953807713763 0.9514108403611877 -0.46233898070905355
1.2031104537171535 0.0 0.04644554836071398 0.9446862061316256 0.0
1.1968287569910354 0.11787734385425758 0.05987253777666402 0.9685352881176986 0.4510985516013379
1.1675630545672933 0.2322427312490051 0.07012864332492726 0.9720986586206332 0.7956668099479272
1.1190836359883032 0.33947030965629804 0.07479180905380622 0.9180428980453924 0.9523324064572585
1.0574590734023341 0.43801388985773304 0.07276079353650065 0.8715501771289957 0.8840975900174669
0.9892906357859234 0.5287868615194148 0.06451523626175522 0.8664048837137502 0.6070765223338175
0.919864366781811 0.6146337196667688 0.052002387185060256 0.8733663846855907 0.18668979824821885
0.8518034208807278 0.6990570014721121 0.0381772491031677 0.877962635517016 -0.27778511650980087
0.7846305792661026 0.7846305792661025 0.026304731665916153 0.8771054029630571 -0.6766590005871762
0.7153465631165971 0.8716523091748152 0.019188618569291143 0.8786635735102125 -0.9157348061512726
0.6397959769750939 0.9575223460711221 0.018509433087699867 0.9046790153663853 -0.9385529955102759
0.55434060453255 1.0370983263921814 0.02442756994702082 0.942658998379325 -0.7397248827654449
