# Quasi-Isodynamic Stellarator surface s = 0.6
# X[m] Y[m] Z[m] |B|[T] Helical_Winding
1.1700000000000002 0.0 0.0 0.9427132238919377 0.0
1.1627127639874375 0.11451721182641002 0.011784918420649942 0.9521807642837754 0.47139673682599764
1.1330637078020491 0.22538038451087866 0.020786740307563632 0.9468272986650323 0.8314696123025452
1.0850339954369133 0.3291414641170119 0.024879618166804923 0.9122149064974433 0.9951847266721968
1.024749387398317 0.4244650942939037 0.02309698831278217 0.8922055002457505 0.9238795325112867
0.958700462596323 0.51243607329891 0.01585983210409114 0.8979239888112959 0.6343932841636455
0.8919312130061012 0.5959693830241247 0.004877258050403215 0.9096406594854574 0.1950903220161286
0.8267659258182746 0.6785092602988794 -0.007257116931361553 0.9133273165265424 -0.2902846772544621
0.7624595949289334 0.7624595949289332 -0.017677669529663688 0.9082795932818694 -0.7071067811865475
0.6958490570749865 0.84789452932294 -0.02392350839330522 0.9075519425564837 -0.9569403357322088
0.6227539238040906 0.9320171110877468 -0.024519632010080762 0.9259419511976889 -0.9807852804032304
0.5396373399988428 1.0095904532258855 -0.019325261334068436 0.9506658220118109 -0.7730104533627374
0.4449650942939038 1.0742407654269654 -0.009567085809127261 0.9495986930576964 -0.3826834323650904
0.33981925825004206 1.1202339653395075 0.002450428508239023 0.9432151754327811 0.09801714032956091
0.2275872217595615 1.1441582278550462 0.013889255825490048 0.9539495719552944 0.5555702330196018
0.11286743577727193 1.14596230665914 0.02204803160870887 0.9411462435237998 0.8819212643483548
6.913131181186809e-17 1.129 0.025 0.905796080512696 1.0
-0.10824693976683468 1.0990496233899054 0.02204803160870888 0.8918690379357817 0.8819212643483552
-0.21136605431848843 1.0626089121701545 0.013889255825490058 0.9003610228255557 0.5555702330196023
-0.31093057053098094 1.0250007246937813 0.002450428508239016 0.9113056119162637 0.09801714032956063
-0.40960975523457627 0.988885426367638 -0.009567085809127247 0.912721540825626 -0.38268343236508984
-0.5097322475969357 0.9536419604995148 -0.01932526133406843 0.9072455691010078 -0.7730104533627371
-0.6119152862378532 0.9157959436466738 -0.024519632010080755 0.9094569456245692 -0.9807852804032301
-0.7142645220495706 0.8703338383198129 -0.02392350839330523 0.9315857549316062 -0.9569403357322093
-0.812459594928933 0.8124595949289332 -0.017677669529663712 0.9528982671408622 -0.7071067811865485
-0.9007384140948191 0.7392169125322612 -0.007257116931361548 0.9471323100323613 -0.2902846772544619
-0.9734805286909932 0.6504588937017067 0.004877258050403222 0.9447533622627595 0.19509032201612886
-1.026873898234739 0.5488755338236682 0.01585983210409112 0.9545486523576213 0.6343932841636447
-1.0601047264576442 0.43910975523457646 0.02309698831278216 0.9343702937330253 0.9238795325112864
-1.0756543399194651 0.32629617672241473 0.024879618166804923 0.9004648452000228 0.9951847266721968
-1.0785741971244673 0.2145417469446421 0.020786740307563643 0.8924734191157107 0.8314696123025457
-1.074945306746746 0.10587287179368465 0.011784918420649958 0.9028668743769476 0.47139673682599825
-1.07 1.310372075087668e-16 1.5308084989341915e-17 0.9125341748189292 6.123233995736766e-16
-1.0665010237582837 -0.1050411825118057 -0.01178491842064997 0.9118058204858316 -0.47139673682599875
-1.063895320301187 -0.21162193680524874 -0.020786740307563625 0.9065055630645428 -0.831469612302545
-1.0585123566032346 -0.32109621293298346 -0.02487961816680492 0.9122945640459978 -0.9951847266721967
-1.0447407654269656 -0.43274579420389725 -0.023096988312782174 0.937257713253707 -0.9238795325112868
-1.0168031695439923 -0.5434926171913247 -0.015859832104091177 0.9537599992757216 -0.634393284163647
-0.9705607185516003 -0.6485079389397839 -0.004877258050403208 0.944894709047572 -0.19509032201612833
-0.9047774897142564 -0.7425316962276862 0.007257116931361518 0.9470593797495995 0.2902846772544607
-0.8214595949289333 -0.8214595949289331 0.01767766952966369 0.9536408587648193 0.7071067811865476
-0.7251918994515799 -0.8836488862095905 0.02392350839330521 0.9269567433009617 0.9569403357322084
-0.6217233981598184 -0.9304748204699546 0.024519632010080762 0.8964049584411321 0.9807852804032304
-0.5162913504913924 -0.9659131789144296 0.01932526133406845 0.8938133104101151 0.7730104533627379
-0.412245794203898 -0.9952493873983167 0.009567085809127317 0.9053218319196475 0.3826834323650926
-0.3104184187999537 -1.0233123867006404 -0.0024504285082389853 0.9132802605993383 -0.09801714032955941
-0.20941509955656631 -1.0528008002481897 -0.013889255825489997 0.9106838949277274 -0.5555702330195998
-0.10669095856094388 -1.083251481086581 -0.02204803160870891 0.9062088279288901 -0.8819212643483563
-2.0408738907790636e-16 -1.1109999999999998 -0.025 0.9160639676490033 -1.0
0.1113114545713805 -1.1301641643558153 -0.022048031608708885 0.9425718688190939 -0.8819212643483554
0.22563626699763886 -1.1343501159330818 -0.013889255825490035 0.9533220382249729 -0.5555702330196014
0.3393071065190142 -1.1185456273463665 -0.0024504285082390313 0.9433178969650496 -0.09801714032956124
0.44760113326322504 -1.0806047264576442 0.009567085809127273 0.949707494736924 0.3826834323650909
0.546196442893299 -1.0218616716408004 0.01932526133406842 0.951059763878721 0.7730104533627367
0.6325620357260551 -0.9466959879110278 0.024519632010080752 0.9194086839535651 0.98078528040323
0.7067764344769953 -0.861209577212718 0.023923508393305225 0.8936709307784051 0.9569403357322089
0.7714595949289331 -0.7714595949289336 0.017677669529663723 0.8956897945503345 0.7071067811865489
0.8308050014377114 -0.6818240439943053 0.007257116931361646 0.9076146416223834 0.29028467725446583
0.8890114028667083 -0.5940184282622022 -0.004877258050403251 0.9135347547192064 -0.19509032201613002
0.948629733905576 -0.507053156666567 -0.01585983210409107 0.9094685234560352 -0.6343932841636428
1.0093854263676378 -0.41810113326322546 -0.023096988312782157 0.9065090294763769 -0.9238795325112862
1.0678920121206827 -0.3239415003275811 -0.024879618166804923 0.9206753327113606 -0.9951847266721968
1.1183848309787687 -0.22246057437148611 -0.020786740307563653 0.9471492274360914 -0.831469612302546
1.1542684809989752 -0.11368552254453122 -0.011784918420649932 0.9518134392830341 -0.47139673682599725
1.1694221672006637 0.0 0.011762056839547272 0.9429234035887996 0.0
1.1621173828456441 0.1144585719022224 0.02396281990113655 0.9546374662126708 0.469126832692346
1.1324616364959013 0.2252606250820414 0.03328228161013032 0.9514668691474306 0.827465858855546
1.0844397722563952 0.3289612084858791 0.03751958145542478 0.9164707870969313 0.9903926402016152
1.024178548665916 0.4242286451490154 0.03567404942040135 0.893988671758114 0.919430800040282
0.9581666129077222 0.5121507246954291 0.0281815216836604 0.8978582078646568 0.6313385071030749
0.8914437327505182 0.5956436591309368 0.016811414649180435 0.9093540036414246 0.19415090879201183
0.8263289796506413 0.678150667846369 0.004248864042671972 0.9146257153707497 -0.2888868771906088
0.7620726741681056 0.7620726741681055 -0.006539389951512329 0.9095915778342971 -0.7037018687631912
0.6955087929821914 0.8474799163262381 -0.013005620550328277 0.9068338317440416 -0.9523324064572586
0.6224565114709839 0.9315720020761316 -0.013622779086695546 0.9228484911524409 -0.9760625312022029
0.5393807434394156 1.0091103948282791 -0.008245118961272417 0.9472686775024903 -0.7692881967445468
0.44475031387899067 1.07372223963635 0.0018573852091926697 0.9481163199094557 -0.38084070704023065
0.3396502891670945 1.11967694892206 0.014298951585971758 0.9438333036461708 0.09754516100806444
0.22746979498245307 1.143567883581056 0.026141411314472597 0.9569151464427476 0.5528950104948213
0.11280705202129271 1.1453492200960393 0.034588079051201454 0.9459773708425322 0.8776745724069158
6.909327610338004e-17 1.1283788297407134 0.03764421110251332 0.9096226980258225 0.9951847266721969
-0.10818655601085549 1.0984365368268048 0.03458807905120146 0.8931860709027282 0.8776745724069162
-0.21124862754138002 1.0620185678961642 0.02614141131447261 0.9000858470638059 0.5528950104948217
-0.3107616014480334 1.024443708276334 0.014298951585971751 0.9112599868168428 0.09754516100806417
-0.40939497481966314 0.9883669005770226 0.0018573852091926836 0.914242412783444 -0.3808407070402301
-0.5094756510375085 0.9531619021019085 -0.00824511896127241 0.9082658905530548 -0.7692881967445465
-0.6116178739047465 0.9153508346350587 -0.01362277908669554 0.9082211748568844 -0.9760625312022025
-0.7139242579567755 0.8699192253231111 -0.013005620550328287 0.9282004201728565 -0.952332406457259
-0.8120726741681055 0.8120726741681056 -0.006539389951512353 0.9497733635739688 -0.7037018687631922
-0.9003014679271859 0.7388583200797508 0.004248864042671977 0.9460928354508957 -0.28888687719060857
-0.9729930484354101 0.6501331698085187 0.016811414649180442 0.9457934798241742 0.19415090879201208
-1.026340048546138 0.5485901852201872 0.02818152168366038 0.9580142241549429 0.6313385071030742
-1.0595338877252434 0.43887330608968816 0.03567404942040134 0.9392596750623146 0.9194308000402817
-1.0750601167389469 0.32611592109128196 0.03751958145542478 0.9037991740240884 0.9903926402016152
-1.0779721258183195 0.21442198751580488 0.03328228161013033 0.8933697832276437 0.8274658588555465
-1.0743499256049525 0.10581423186949704 0.023962819901136564 0.9024522839778268 0.4691268326923466
-1.0694221672006636 1.3096644339995183e-16 0.011762056839547287 0.9128068215396871 6.093748950397198e-16
-1.0659463041471373 -0.10498654739883417 -0.0004387062220420363 0.9134405296058675 -0.4691268326923471
-1.0633639317990882 -0.21151623706029793 -0.00975816793103577 0.9071655130089042 -0.8274658588555458
-1.0580006767577648 -0.3209409965487915 -0.013995467776330225 0.9105392710494384 -0.9903926402016151
-1.044243908366325 -0.43253998927081916 -0.012149935741306812 0.9336904218094046 -0.9194308000402821
-1.0163178131666475 -0.5432331888027292 -0.004657408004565898 0.9509860096674179 -0.6313385071030765
-0.9700872979799037 -0.6481916094270246 0.006712699029914117 0.9442844093954179 -0.19415090879201155
-0.9043210942935238 -0.7421571421856596 0.019275249636422537 0.9485452081680934 0.2888868771906074
-0.8210293367081555 -0.8210293367081551 0.03006350363060687 0.9575713618924873 0.7037018687631913
-0.7247990170498382 -0.8831701576179266 0.03652973422942281 0.9317645639785188 0.9523324064572581
-0.6213787570869778 -0.92995902865429 0.03714689276579009 0.8992161256836648 0.9760625312022029
-0.5160031700587432 -0.9653740312460903 0.031769232640366976 0.8943378214821693 0.7692881967445473
-0.4120183205408448 -0.994700217395891 0.021666728469901933 0.9048513905464827 0.3808407070402329
-0.3102519158675764 -1.0227635000920998 0.009225162093122826 0.9139130827530058 -0.09754516100806296
-0.2093070671598867 -1.0522576847139333 -0.0026172976353780047 0.9123168447599566 -0.5528950104948193
-0.10663806727976395 -1.0827144668967423 -0.011063965372106944 0.906451560826923 -0.8776745724069173
-2.0398920387692558e-16 -1.1104655046606136 -0.014120097423418774 0.913809356965732 -0.9951847266721969
0.11125856329020059 -1.1296271501659767 -0.01106396537210692 0.9389424852177857 -0.8776745724069164
0.22552823460095922 -1.1338070003988252 -0.002617297635378043 0.9509541092776934 -0.5528950104948208
0.3391406035866369 -1.117996740737826 0.009225162093122777 0.9431221517082041 -0.09754516100806478
0.4473736596001719 -1.0800555564552186 0.021666728469901884 0.95166679442536 0.38084070704023115
0.5459082624606498 -1.0213225239724613 0.03176923264036694 0.9553910731578121 0.7692881967445461
0.6322173946532144 -0.9461801960953633 0.037146892765790085 0.924000007028891 0.9760625312022024
0.7063835520752535 -0.8607308486210541 0.03652973422942282 0.8959573277878122 0.9523324064572587
0.7710293367081552 -0.7710293367081555 0.030063503630606905 0.8958926902517452 0.7037018687631926
0.830348606016979 -0.6814494899522788 0.019275249636422666 0.9071846596111403 0.28888687719061246
0.8885379822950116 -0.5937020987494429 0.006712699029914075 0.9145247240996836 -0.19415090879201324
0.9481443775282311 -0.5067937282779715 -0.004657408004565785 0.9109896628066922 -0.6313385071030723
1.0088885693069973 -0.41789532833014736 -0.012149935741306793 0.9062885289205365 -0.9194308000402814
1.067380332275213 -0.32378628394338915 -0.013995467776330229 0.9179663122271324 -0.9903926402016152
1.11785344247667 -0.2223548746265353 -0.009758167931035797 0.9435789789850845 -0.8274658588555468
1.153713761387829 -0.1136308874315597 -0.0004387062220419964 0.9498830301020049 -0.4691268326923456
1.1676942336483878 0.0 0.02341083864193539 0.9435549445412589 0.0
1.1603369732661286 0.11428321686418538 0.036023441533247956 0.9574894867612901 0.46233898070905394
1.1306612208532614 0.22490250014429652 0.045657484019195574 0.9566848872136153 0.8154931568489171
1.0826628254089046 0.32842217755274633 0.05003781498786842 0.9217518402732005 0.9760625312022028
1.022471529957759 0.42352157484887215 0.04812998655423319 0.8970641219692668 0.9061274463528878
0.9565702051062532 0.5112974269480252 0.04038454665685772 0.8990563420140066 0.6222035950943673
0.8899859866851139 0.5946696243505226 0.028630638796037812 0.9098622259776574 0.19134171618254522
0.8250223491781951 0.6770783439301818 0.01564403613011655 0.9165044009575548 -0.28470693857777885
0.7609156381440619 0.7609156381440618 0.004491621905498455 0.9119896376352121 -0.6935199226610737
0.694491277633027 0.8462400702859414 -0.0021928779356037986 0.9072992900202441 -0.9385529955102759
0.6215671387150138 0.9302409616843889 -0.0028308688137882766 0.9206932404175349 -0.9619397662556434
0.5386134249262713 1.0076748428602562 0.0027283155834516293 0.9444344184448432 -0.7581572742560008
0.4441080410870577 1.0721716559513221 0.013171832326355045 0.9470474380083425 -0.37533027751786585
0.3391450091828887 1.118011264042314 0.02603336690940436 0.9448698023955886 0.09613376846245118
0.22711864553518335 1.1418025360971589 0.03827557184838676 0.9602839050975919 0.5448951067758183
0.11262648228193425 1.1435158647654868 0.04700735898173559 0.9514672023893684 0.8649753945474727
6.897953528258109e-17 1.1265213011720168 0.05016665154008054 0.9145534536884794 0.9807852804032304
-0.10800598627149703 1.0966031814962522 0.047007358981735595 0.8958126989195931 0.8649753945474731
-0.21089747809411027 1.060253220412267 0.03827557184838677 0.9010218403842396 0.5448951067758186
-0.3102563214638276 1.0227780233965882 0.026033366909404353 0.911890567925504 0.0961337684624509
-0.4087527020277302 0.9868163168919948 0.013171832326355059 0.9164339773190333 -0.3753302775178653
-0.5087083325243641 0.9517263501338856 0.0027283155834516362 0.9104312905959796 -0.7581572742560004
-0.6107285011487764 0.914019794243316 -0.0028308688137882697 0.9081423954693157 -0.961939766255643
-0.712906742607611 0.8686793792828144 -0.002192877935603809 0.9256769028216825 -0.9385529955102764
-0.8109156381440618 0.8109156381440619 0.004491621905498431 0.9471564737149025 -0.6935199226610747
-0.8989948374547396 0.7377859961635638 0.015644036130116553 0.9454669429868923 -0.2847069385777786
-0.9715353023700057 0.6491591350281045 0.02863063879603782 0.9472454074467793 0.19134171618254547
-1.024743640744669 0.5477368874727834 0.0403845466568577 0.961903590509772 0.6222035950943665
-1.0578268690170862 0.4381662357895449 0.04812998655423318 0.9448974317190073 0.9061274463528874
-1.0732831698914562 0.3255768901581491 0.05003781498786842 0.9083043379985387 0.9760625312022028
-1.0761717101756794 0.21406386257805995 0.045657484019195595 0.8955829193122967 0.8154931568489175
-1.072569516025437 0.10563887683146002 0.03602344153324797 0.9031733332144197 0.4623389807090545
-1.0676942336483877 1.3075483257055843e-16 0.023410838641935404 0.9136619793925937 6.005577771483277e-16
-1.0642874875667938 -0.10482316822592401 0.010798235750622795 0.915858538174728 -0.462338980709055
-1.061774883854554 -0.21120015577177084 0.0011641932646752028 0.9090067029470651 -0.8154931568489169
-1.0564705649779795 -0.3204768422148451 -0.0032161377039976353 0.9099025023252993 -0.9760625312022027
-1.0427581221895077 -0.4319245564855949 -0.0013083092703624205 0.9309052997511481 -0.9061274463528879
-1.0148664182818503 -0.5424574020741431 0.006437130627013014 0.9486779620070803 -0.6222035950943688
-0.968671595563717 -0.6472456673148779 0.01819103848783297 0.9440911413297169 -0.19134171618254495
-0.9029563033687192 -0.741037087219757 0.031177641153754196 0.9504345954320134 0.2847069385777775
-0.8197427056676909 -0.8197427056676907 0.04233005537837232 0.9619613823508749 0.6935199226610738
-0.7236241535169128 -0.8817385822609722 0.049014555219474565 0.9374151398317724 0.9385529955102755
-0.6203481529503873 -0.9284166205644417 0.04965254609765905 0.9032513989550986 0.9619397662556434
-0.5151414040958975 -0.9637617805278471 0.044093361700419165 0.8961755033326474 0.7581572742560011
-0.41133809024741025 -0.9930579961959443 0.033649844957515794 0.9054181836283676 0.375330277517868
-0.3097540105847031 -1.02112212634457 0.02078831037446646 0.9150763424393894 -0.09613376846244971
-0.2089840103808845 -1.0506335686106565 0.008546105435484069 0.914848958280808 -0.5448951067758163
-0.10647990280817522 -1.081108596067436 -0.0001856816978648458 0.9078919462342009 -0.8649753945474741
-2.0369559385114226e-16 -1.1088671661247584 -0.0033449742562097658 0.9126233395613195 -0.9807852804032304
0.11110039881861186 -1.1280212793366704 -0.00018568169786482153 0.9360162868527555 -0.8649753945474733
0.22520517782195698 -1.1321828842955481 0.008546105435484027 0.9490232064715346 -0.5448951067758179
0.3386426983037636 -1.1163553669902961 0.02078831037446641 0.9433468913821508 -0.0961337684624515
0.4466934293067373 -1.0784133352552718 0.033649844957515745 0.9540228614023384 0.37533027751786635
0.5450464964978041 -1.019710273254218 0.04409336170041914 0.9602336747847463 0.758157274256
0.6311867905166239 -0.944637788005515 0.049652546097659046 0.9295280064098886 0.9619397662556429
0.7052086885423282 -0.8592992732640998 0.04901455521947458 0.899507931241576 0.938552995510276
0.7697427056676909 -0.7697427056676912 0.04233005537837235 0.8973922529948528 0.6935199226610751
0.8289838150921742 -0.6803294349863761 0.031177641153754328 0.9076749985835325 0.2847069385777825
0.8871222798788249 -0.5927561566372962 0.018191038487832926 0.916044561876963 -0.1913417161825466
0.946692982643434 -0.5060179415493854 0.006437130627013132 0.9135138955864494 -0.6222035950943646
1.00740278313018 -0.4172798955449231 -0.0013083092703623997 0.9072656289223214 -0.9061274463528872
1.0658502204954277 -0.3233221296094428 -0.003216137703997639 0.9162652628993432 -0.9760625312022028
1.1162643945321356 -0.22203879333800822 0.001164193264675175 0.9406376112072001 -0.8154931568489179
1.1520549448074855 -0.11346750825864954 0.010798235750622833 0.9483728960604609 -0.46233898070905355
1.1648328402878652 0.0 0.03483416127053548 0.9446107585783667 0.0
1.157388681566412 0.11399283547717402 0.047850632937660495 0.9607216561028398 0.4510985516013379
1.1276797998609753 0.22430945863656554 0.05779316757058634 0.9624349774130829 0.7956668099479272
1.0797202678639606 0.3275295624801638 0.062313761332055885 0.9280024774221891 0.9523324064572585
1.0196447707971563 0.4223506928669881 0.06034484223057103 0.901406476848866 0.8840975900174669
0.9539266134717292 0.5098843977804657 0.0523513852223392 0.901569224103044 0.6070765223338175
0.8875720137013833 0.5930566591702795 0.04022110490139598 0.9113125142344783 0.18668979824821885
0.822858617966662 0.6753026156158227 0.026818657594535382 0.9188893094859296 -0.27778511650980087
0.7589996297462138 0.7589996297462137 0.015309131367021181 0.9153565960329425 -0.6766590005871762
0.692806310256536 0.8441869315971865 0.008410586828642045 0.908945495044888 -0.9157348061512726
0.6200943706820007 0.928036808559112 0.0077521668132547045 0.9195155632333974 -0.9385529955102759
0.5373427741561503 1.005297622472021 0.013489362126748498 0.9422042366191816 -0.7397248827654449
