# QI Stellarator field line 7
# X[m] Y[m] Z[m]
7.654042494670958e-17 1.25 0.0
-0.013971571836022925 1.2553800130118256 1.6709564378649799e-18
-0.02805306515152544 1.260457585986378 -0.00031479534296967223
-0.042242339022145456 1.2651939443550075 -0.0009675147514855672
-0.05653305635661109 1.2695502202417541 -0.001979470835112325
-0.07091431433814419 1.2734886363046383 -0.0033692211328521914
-0.08537053192910174 1.276973970415608 -0.00515158753192409
-0.09988168684856129 1.2799752261157966 -0.007336733080207472
-0.11442396324214439 1.2824673697962217 -0.009929422287324272
-0.128970811492554 1.2844329406314454 -0.012928597142674329
-0.14349434206705752 1.2858633149310073 -0.01632737577375729
-0.1579668969100892 1.2867594300724388 -0.02011352239892143
-0.17236259140757362 1.2871318471812927 -0.024270357636307582
-0.18665861769486164 1.2870001390081591 -0.028777999756801263
-0.2008361488312824 1.286391698310979 -0.03361477407598118
-0.21488076621769361 1.2853401404600047 -0.038758613745373476
-0.22878242174003635 1.2838835039027197 -0.04418829967386762
-0.24253501623286605 1.2820624351613428 -0.04988443639414087
-0.2561357139697701 1.2799184975362534 -0.05583011618489193
-0.2695841196244215 1.2774926854812867 -0.062011271138427054
-0.2828814287671096 1.274824176224949 -0.06841674508142172
-0.2960296368221583 1.271949315113483 -0.07503813410466258
-0.3090308634690539 1.268900812534937 -0.08186944963043578
-0.32188682476887936 1.265707124872067 -0.08890665609787989
-0.33459846554747036 1.2623919947980096 -0.09614713025595002
-0.34716574952085694 1.2589741326615536 -0.10358908298378723
-0.35958759338386553 1.255467027117032 -0.11123097840627406
-0.37186192280397623 1.2518788773276917 -0.11907097886773105
-0.3839858226041393 1.248212640116939 -0.12710643777144423
-0.39595575037710695 1.2444661835582347 -0.13533345517814518
-0.4077677824528553 1.2406325346584002 -0.1437465034832009
-0.4194178634743599 1.236700204378445 -0.15233812289198528
-0.43090203542422795 1.2326535696404144 -0.16109867941977646
-0.4422166280445764 1.228473290264417 -0.170016172394052
-0.45335839926407884 1.224136739539198 -0.17907607439416123
-0.4643246205583931 1.219618430398341 -0.1882611844143067
-0.4751131073963363 1.2148904245952996 -0.19755147470689216
-0.4857221986568218 1.2099227192868935 -0.20692391301844223
-0.49615069107241655 1.2046836134938943 -0.2163522445182002
-0.5063977355804764 1.1991400656023128 -0.22580672152752068
-0.516462702355148 1.1932580621835787 -0.23525377434483113
-0.5263450207824453 1.187003027852917 -0.24465562355455459
-0.5360440003224539 1.1803403154999967 -0.25396984416190427
-0.5455586387253782 1.1732358254904875 -0.26314890606988517
-0.5548874261297057 1.1656568099993527 -0.272139735418701
-0.5640281578866932 1.1575729217167485 -0.2808833685480954
-0.5729777761164843 1.1489575599187143 -0.28931480506191937
-0.5817322701144994 1.1397895440635817 -0.29736320602093425
-0.590286677736767 1.1300550967145426 -0.3049526195814337
-0.5986352406064096 1.1197500360623822 -0.3120034332239032
-0.6067717691971737 1.1088819638418455 -0.3184347240121497
-0.6146902606311785 1.0974721048035756 -0.32416757735945206
-0.6223857737531008 1.0855563528073393 -0.3291292534473752
-0.6298555010964667 1.0731850718671836 -0.333257817622761
-0.637099899149606 1.060421348795188 -0.3365065914288093
-0.6441236774498584 1.0473377049418868 -0.3388476442039397
-0.6509364396314596 1.0340116645189559 -0.3402736384751261
-0.657552833735525 1.0205208902941718 -0.34079767954083157
-0.663992186558392 1.006938691097156 -0.34045128509924355
-0.6702777191235293 0.9933305434632891 -0.33928099583860066
-0.6764355185540164 0.9797519438679121 -0.33734434480636116
-0.6824934547497881 0.9662475696579514 -0.3347058636504719
-0.688480190731809 0.9528514928171462 -0.33143360610764494
-0.694424372820554 0.939588097416581 -0.32759642735275785
-0.7003540277260952 0.9264733698766395 -0.3232620568813889
-0.706296152161164 0.9135163077135398 -0.31849587641752575
-0.712276458781808 0.9007202818731048 -0.31336025805286094
-0.7183192356271122 0.8880842641797149 -0.30791430968176753
-0.724447278737619 0.8756038859643478 -0.30221389225476675
-0.7306818643554275 0.8632723276217944 -0.29631180007272534
-0.7370427349447448 0.8510810565959601 -0.2902580219076131
-0.7435480806779661 0.8390204383837462 -0.284100023025234
-0.7502145044921045 0.8270802457945826 -0.27788300521902054
-0.7570569643629438 0.8152500887853156 -0.27165011434647335
-0.7640886913112029 0.8035197824894776 -0.26544257382835845
-0.7713210860909013 0.7918796656114966 -0.2592997294925154
-0.778763601637747 0.7803208757732654 -0.2532589972705963
-0.7864236221049947 0.7688355831160651 -0.24735571158863376
-0.7943063523983405 0.7574171788830273 -0.2416228794751167
-0.8024147340629196 0.7460604122859477 -0.23609085362159785
-0.8107494036026335 0.7347614671687853 -0.23078694649254375
-0.8193087073241443 0.7235179702200376 -0.22573501613862523
-0.8280887823761639 0.7123289249408498 -0.22095506120661637
-0.8370837070575353 0.7011945700660043 -0.21646286617715613
-0.8462857155226239 0.6901161670448451 -0.21226973678679412
-0.8556854640290464 0.679095727521854 -0.20838235932999236
-0.8652723293579909 0.6681356973349648 -0.20480280657810795
-0.8750347162888725 0.6572386173113433 -0.20152869895990094
-0.8849603507318864 0.646406782420612 -0.19855351471898344
-0.8950365382196489 0.6356419195396082 -0.1958670294324877
-0.9052503730962479 0.6249449006267186 -0.19345585548767258
-0.9155888906264927 0.6143155032962052 -0.19130404689808717
-0.9260391610203799 0.6037522255318323 -0.18939373420798503
-0.9365883299422526 0.5932521563742414 -0.18770575737417983
-0.9472236138315636 0.5828109003931871 -0.1862202701723411
-0.9579322601699293 0.5724225508648351 -0.1849172965278274
-0.9687014829343557 0.5620797048312164 -0.18377722610868766
-0.979518382342168 0.5517735124876026 -0.18278124277277735
-0.9903698561424075 0.5414937534191144 -0.18191168461497234
-1.0012425076118843 0.5312289328770693 -0.1811523382796551
-1.012122553431208 0.520966392361484 -0.1804886729413686
-1.0229957329814718 0.5106924301112483 -0.17990802106644532
-1.0338472194411792 0.5003924285897597 -0.17939971393915205
-1.044661532421052 0.4900509876161126 -0.17895518015010972
-1.055422451749809 0.4796520633787068 -0.17856801495787294
-1.0661129323953964 0.4691791151413471 -0.17823402776657202
-1.0767150213523933 0.4586152629758312 -0.17795127399726224
-1.087209778637446 0.4479434612832525 -0.1777200764189967
-1.0975772063124498 0.43714669412634827 -0.17754303957116344
-1.1077961917031522 0.42620819937032955 -0.1774250592554024
-1.1178444736804725 0.4151117291388138 -0.17737332719961682
-1.1276986439438943 0.40384185387222715 -0.17739732890338575
-1.1373341984947516 0.39238431597696477 -0.1775088304017584
-1.146725657527785 0.38072643625072383 -0.17772184733620985
-1.1558467741536491 0.3688575715256602 -0.1780525875023497
-1.1646708527274898 0.3567696149607813 -0.1785193562926166
-1.1731711948344299 0.3444575211293515 -0.1791424136506048
-1.1813216837666716 0.331919827066527 -0.17994377188440813
-1.1890975054448456 0.3191591292101969 -0.18094692650642435
-1.196475984851677 0.30618246711850877 -0.1821765174816754
-1.2034374934023548 0.2930015611819774 -0.18365792563379021
-1.2099663576847093 0.2796328564735477 -0.1854168174312849
-1.2160516792226996 0.2660973403236115 -0.18747865907153996
-1.2216879650042411 0.252420126386025 -0.18986822534196587
-1.2268754751057735 0.23862982856368428 -0.19260912815834696
-1.2316202189391312 0.22475777693544932 -0.19572338330971148
-1.2359335723203466 0.21083714681320012 -0.19923102319505323
-1.2398315356948535 0.1969020757262705 -0.20314975159150575
-1.2433336990419588 0.1829868308565761 -0.2074946279852298
-1.246462012015933 0.1691250659550638 -0.21227776717467564
-1.2492394736175148 0.1553491802217675 -0.21750804591664977
-1.2516888538997715 0.14168977037352654 -0.22319082067324528
-1.2538315444200376 0.12817515666863044 -0.229327675022337
-1.2556866095158388 0.11483096512839207 -0.2359162269952652
-1.2572700819865683 0.10167975855609887 -0.24295003114895466
-1.2585945183361318 0.08874072262232392 -0.2504186053358524
-1.2596688032356416 0.0760294243569851 -0.25830759855969415
-1.260498172380328 0.06355766466311544 -0.26659909732771375
-1.2610844088863176 0.05133344263920188 -0.2752720483855396
-1.261426161489884 0.03936103917612584 -0.2843027603744454
-1.2615193328071477 0.027641213988612644 -0.29366543888578844
-1.2613574915458337 0.01617149783366336 -0.30333270934857876
-1.2609322719000613 0.004946553078958888 -0.3132760887619905
-1.2602337342661822 -0.006041427713621914 -0.32346637779448706
-1.2592506720359096 -0.016802314238085814 -0.3338739563307801
-1.2579708582904876 -0.027347646237390676 -0.34446897587697983
-1.2563812331479827 -0.0376902744249917 -0.35522145001489114
-1.2544680372841424 -0.04784404548567372 -0.366101248931361
-1.2522169001088428 -0.05782353596820418 -0.3770780061978968
-1.2496128927691406 -0.06764383494060379 -0.3881209460459357
-1.2466405571395265 -0.07732037162376931 -0.39919863808082745
-1.2432839227833565 -0.08686878167472656 -0.41027868436746495
-1.2395265249934782 -0.09630480404617305 -0.4213273416800842
-1.2353514388503426 -0.10564419905320525 -0.4323090799554572
-1.2307413471316802 -0.11490267709808985 -0.44318607715495356
-1.225678664185177 -0.12409582615860128 -0.45391765148186536
-1.2201457437740644 -0.1332390244351434 -0.46445963512512617
-1.2141252064836026 -0.14234732240512432 -0.47476370071609797
-1.2076004311857067 -0.1514352760955747 -0.4847766643216783
-1.2005562641265843 -0.1605167111796381 -0.4944398094331907
-1.1929800057518913 -0.16960439668024718 -0.5036883077161972
-1.184862734286567 -0.17870960973115751 -0.5124508563389276
-1.1762010077635883 -0.18784158234379422 -0.5206497079358805
-1.1669989403380094 -0.19700684192410253 -0.5282013307036367
-1.1572705604341234 -0.20620849376281752 -0.5350179838355515
-1.1470422193313954 -0.21544554693217938 -0.5410104913913252
-1.1363546411672503 -0.22471244690335962 -0.5460923938161987
-1.125264039899233 -0.2339990253204005 -0.5501854013259672
-1.1138416731710181 -0.24329107090072175 -0.5532256641384646
-1.1021713719229609 -0.25257162728432386 -0.5551699093978053
-1.090345027555716 -0.2618229306781878 -0.556000188104231
-1.0784566268264064 -0.2710286743907843 -0.5557260675767729
-1.0665959297019374 -0.2801761416022744 -0.5543836782975541
-1.0548430115674294 -0.28925777302009975 -0.5520318753708907
-1.0432645647191894 -0.2982719262952824 -0.548746508746454
-1.0319122644589682 -0.30722283584302706 -0.5446140957295937
-1.0208229528276715 -0.3161199738838167 -0.5397260159467205
-1.0100200810989686 -0.3249770865697368 -0.5341739048238288
-0.9995158041535654 -0.33381114911072773 -0.5280464593566339
-0.9893132407328848 -0.34264140362621437 -0.5214275443466487
-0.9794085897171797 -0.35148856021918523 -0.51439532979257
-0.9697929496107358 -0.36037417965750557 -0.5070221594066152
-0.9604537981064313 -0.3693202194526557 -0.49937488817777453
-0.9513761519337834 -0.3783487085905555 -0.4915154885514812
-0.9425434565506075 -0.38748151205812514 -0.4835017846415239
-0.9339382638014849 -0.39674014843199573 -0.475388221386647
-0.9255427533656768 -0.40614562825019024 -0.46722660867114374
-0.9173391468451586 -0.4157182857060586 -0.4590668008408206
-0.9093100549769287 -0.4254775807421505 -0.4509572825389567
-0.9014387900444317 -0.4354418530612021 -0.44294563509126395
-0.893709667312797 -0.4456280145922771 -0.4350788562162022
-0.8861083108035417 -0.4560511735124895 -0.427403501938192
-0.8786219692965144 -0.4667241920531431 -0.41996561576529845
-0.8712398375393207 -0.4776571927867194 -0.41281040951644465
-0.8639533651819108 -0.4888570439320921 -0.40598166630281174
-0.8567565227884152 -0.5003268720856572 -0.3995208529151009
-0.8496459825682985 -0.5120656673728613 -0.393465959075148
-0.8426211647216006 -0.5240680559335025 -0.3878501245636589
-0.8356841027018133 -0.5363243114230338 -0.3827001668879086
-0.8288390955669328 -0.5488206556586719 -0.37803517039214324
-0.8220921431568479 -0.5615398581632914 -0.37386532641010223
-0.8154501956084008 -0.5744620919626555 -0.370191207814669
-0.8089202837242858 -0.587565952273502 -0.36700361309072743
-0.8025086204059655 -0.6008295116952962 -0.3642840319770196
-0.7962197681461408 -0.6142312814044476 -0.3620056876313667
-0.7900559523594606 -0.62775097353638 -0.36013502584120516
-0.7840165708567374 -0.6413700056775655 -0.3586334712867277
-0.7780979155964054 -0.6550717388478041 -0.3574592620865045
-0.7722930930265663 -0.6688414816359272 -0.3565692004976606
-0.7665921093026347 -0.6826663176323962 -0.3559202048599159
-0.7609820775641629 -0.6965348204346088 -0.3554705997907495
-0.7554475043079031 -0.7104367145563086 -0.35518112667667673
-0.7499706174497739 -0.7243625274749207 -0.35501568908423226
-0.7445317068355177 -0.7383032629947601 -0.35494186723055016
-0.7391094565151608 -0.7522501125006096 -0.35493124438600293
-0.7336812557841914 -0.7661942101383734 -0.35495958928953897
-0.7282234823141841 -0.7801264307953858 -0.35500693538553735
-0.7227117556164757 -0.7940372255406444 -0.35505759225390426
-0.7171211628063502 -0.8079164872221557 -0.35510011851699147
-0.7114264614432517 -0.821753438495314 -0.35512727961888574
-0.7056022663923883 -0.8355365350870115 -0.35513600856280875
-0.6996232294215745 -0.8492533781605033 -0.35512738303226415
-0.6934642217968571 -0.8628906309627394 -0.3551066281946919
-0.6871005315938378 -0.8764339363578508 -0.3550831506612168
-0.680508088853632 -0.8898678333172809 -0.3550706052447034
-0.6736637330552823 -0.9031756719517317 -0.3550869919542694
-0.6665455385129244 -0.9163395282789565 -0.3551547756728106
-0.6591332139482943 -0.9293401217001601 -0.35530101473852704
-0.6514085921431786 -0.9421567402020139 -0.35555747675526467
-0.6433562234762173 -0.9547671807186884 -0.3559607100532694
-0.6349640821967795 -0.9671477149856439 -0.35655202724801704
-0.6262243850418676 -0.9792730946716257 -0.35737734380193376
-0.6171345065748428 -0.9911166135707425 -0.3584868008898021
-0.6076979528396667 -1.0026502489320543 -0.3599340912825692
-0.5979253238764468 -1.0138449079107 -0.36177540458681684
-0.587835157828656 -1.0246708071914605 -0.36406792143799455
-0.5774545103105815 -1.035098011561594 -0.3668678238221349
-0.5668190936472198 -1.045097147092206 -0.3702278575104571
-0.5559727985876942 -1.0546402830342676 -0.37419458229731695
-0.5449664650907311 -1.0637019421000513 -0.37880556198529314
-0.5338558703421691 -1.0722601554195244 -0.3840868466466619
-0.5226990527661232 -1.0802974377879864 -0.3900511399825056
-0.5115532538005728 -1.08780153847695 -0.39669698615655735
-0.5004718771698107 -1.0947658387395078 -0.40400914674631905
-0.4895018858334165 -1.101189322641347 -0.4119601100964372
-0.4786819634283516 -1.1070761281929744 -0.42051245821869887
-0.4680415929333058 -1.1124347634371083 -0.4296216840994763
-0.4576010156446158 -1.1172771213382158 -0.4392390384317592
-0.447371890084164 -1.1216174368126575 -0.44931407134015994
-0.43735840362060335 -1.1254713050940466 -0.45979667101819477
-0.4275585941986626 -1.1288548390139168 -0.47063853513175935
-0.41796568924569266 -1.1317840000587298 -0.4817941097743228
-0.4085693342590714 -1.134274104608798 -0.4932210856954862
-0.39935664391515846 -1.1363394859731648 -0.504880559486517
-0.3903130539324514 -1.1379932833366202 -0.5167369614590215
-0.3814229808430291 -1.1392473271676598 -0.5287578343217566
-0.37267031211063123 -1.1401120935849327 -0.5409135259943757
-0.36403875481123815 -1.140596705057224 -0.553176840744079
-0.35551207112245325 -1.1407089600044114 -0.5655226772492622
-0.34707422594099957 -1.1404553785433975 -0.5779276704900463
-0.3387094678699409 -1.1398412554691544 -0.590369846057986
-0.3304023606281058 -1.1388707145528434 -0.6028282898251492
-0.3221377781550733 -1.1375467604905383 -0.6152828321844396
-0.3139008735242907 -1.1358713265101454 -0.6277137436552723
-0.3056770292737092 -1.1338453169075233 -0.6401014370708931
-0.29745179487933804 -1.131468644789283 -0.6524261704845408
-0.28921081577060254 -1.1287402661878039 -0.6646677441150297
-0.28093975746298316 -1.1256582126127208 -0.6768051839438639
-0.27262422803392894 -1.1222196251419299 -0.6888164038877712
-0.2642497022991676 -1.1184207944755895 -0.7006778377756135
-0.25580145171036345 -1.1142572131453303 -0.712364031698797
-0.24726448529739922 -1.1097236484925714 -0.7238471868149023
-0.23862350908799088 -1.1048142483574828 -0.7350966426428829
-0.22986291459025154 -1.0995226959563646 -0.7460782917975164
-0.22096681141735336 -1.0938424365010833 -0.7567539198289994
-0.21191912528582665 -1.087767006017601 -0.7670804697657841
-0.20270379065906324 -1.0812905026225856 -0.7770092423121516
-0.19330507712214998 -1.074408251707306 -0.7864850627163674
-0.1837080992013447 -1.067117727275979 -0.7954454786348913
-0.17389956806435128 -1.0594197978727566 -0.8038201053179238
-0.16386884448109526 -1.0513203587546156 -0.8115303098501488
-0.153609334878786 -1.0428323779333248 -0.8184895246398614
-0.14312021993695007 -1.0339783019232438 -0.8246045876045888
-0.13240839899979143 -1.0247926160199348 -0.8297785807293344
-0.12149036419519758 -1.0153241282170966 -0.8339155976823822
-0.11039351078704333 -1.0056372884635514 -0.8369275995418232
-0.09915623510333557 -0.995811692413318 -0.8387429265790203
-0.08782622332871476 -0.9859390515693306 -0.8393151896545856
-0.07645672969043535 -0.9761174958424026 -0.8386305124799972
-0.06510133481793996 -0.9664440123152085 -0.8367109874188478
-0.053808340550084766 -0.9570066647671166 -0.8336131024839185
-0.04261616640712673 -0.9478784304530901 -0.8294215101482239
-0.0315506991189019 -0.9391138611814593 -0.8242399686049914
-0.020624780608369735 -0.9307487220634425 -0.8181818167237335
-0.009839362020282485 -0.9228018963831623 -0.8113618654333482
0.0008144252948519239 -0.9152785078614057 -0.803890623192328
0.011352958140206476 -0.9081733372993358 -0.7958709049614059
0.02179800915872517 -0.901473942690576 -0.7873963791661733
0.03217503646961799 -0.8951632153177952 -0.7785514633725696
0.042511912720558924 -0.8892213257699055 -0.7694120425164153
0.05283804311193531 -0.8836271296781023 -0.7600466215248587
0.06318378847491189 -0.8783591451384055 -0.7505176607082091
0.0735801056160815 -0.8733962156888033 -0.7408829478088127
0.08405832527735287 -0.8687179576034095 -0.7311969311697091
0.0946499982077877 -0.8643050710828308 -0.7215119800200152
0.10538674731827548 -0.8601395774887232 -0.7118795577232947
0.11630006714304453 -0.8562050308650075 -0.7023512975846221
0.12742101119650417 -0.8524867412735408 -0.692979961590861
0.13877970514527557 -0.848972038479402 -0.6838202413810883
0.15040462274137426 -0.8456505950044371 -0.674929328003724
0.16232156854779814 -0.8425148146070084 -0.6663671337816188
0.1745523362225102 -0.8395602724990023 -0.6581960011359964
0.18711306547900677 -0.8367861642500117 -0.6504796933399742
0.20001241472130873 -0.8341956812623682 -0.6432814577953198
0.2132497973779812 -0.8317961882637457 -0.636661023656643
0.22681406843054097 -0.8295990489213906 -0.6306705831462059
0.24068312650357185 -0.8276189554023935 -0.6253501182786976
0.25482482720079064 -0.825872690967293 -0.6207228036396212
0.2691993308778079 -0.8243773924212547 -0.6167914780385343
0.28376258768566415 -0.8231485399248981 -0.6135371374432753
0.2984702761033706 -0.8221980107898453 -0.6109199734260969
0.3132813675150568 -0.8215325298088675 -0.6088828048573952
0.3281606683042891 -0.8211527307448654 -0.6073561351386462
0.34308007832522813 -0.8210528742155594 -0.6062637824775525
0.35801868936364495 -0.821221124122323 -0.605528132497108
0.37296207498646833 -0.821640211333295 -0.6050744050168791
0.387901166697969 -0.8222883068999032 -0.6048337074739472
0.4028310331973102 -0.8231399601010536 -0.6047449317312442
0.4177497602249943 -0.8241670013914763 -0.604755702567983
0.4326575220267119 -0.8253393505191027 -0.6048226310310948
0.44755586264125397 -0.8266257000657277 -0.6049111080264234
0.4624471652822826 -0.8279940648061976 -0.6049948294094918
