# QI Stellarator field line 2
# X[m] Y[m] Z[m]
0.8131727983645296 0.8131727983645295 0.0
0.8022440100635927 0.8231763880937032 -0.002365012338425228
0.7910562790990752 0.8329275828710365 -0.00457527717903401
0.7796035843230227 0.842406093371362 -0.006616487718413361
0.7678836976495761 0.8515932855284183 -0.008474479963481734
0.7558985539023971 0.8604730225623383 -0.01013595242977441
0.7436543570158415 0.8690324699714902 -0.011589204339120904
0.7311613996640332 0.8772627905461596 -0.012824826498037404
0.7184336079052356 0.8851596580686609 -0.013836278929133255
0.7054878582825201 0.8927235335900097 -0.014620300090948411
0.6923431437080779 0.8999596750064146 -0.015177112870120402
0.679019679538249 0.9068778834066362 -0.015510418294097038
0.6655380396593549 0.9134920208037813 -0.015627193370311977
0.6519183961148857 0.9198193567189241 -0.01553732932813829
0.6381799104358215 0.9258798119638533 -0.015253157670136566
0.6243402972678241 0.9316951669000872 -0.014788913445068231
0.6104155569043423 0.9372882913654765 -0.014160179927973415
0.5964198562767791 0.9426824385891708 -0.013383349449524011
0.5823655286096947 0.9479006297337695 -0.012475124438052442
0.5682631592676003 0.9529651419871618 -0.011452073018404365
0.5541217273719913 0.9578971027247507 -0.010330245925561067
0.5399487775408482 0.9627161853532662 -0.00912485632570811
0.5257506019551785 0.9674403984886553 -0.007850021098294262
0.5115324187632967 0.9720859582796122 -0.006518560650915958
0.49729853794386525 0.9766672331430465 -0.005141853805309699
0.48305250986885023 0.9811967502793727 -0.0037297441974302892
0.46879725487261115 0.9856852536613373 -0.0022904946281059233
0.45453517421057676 0.9901418035267295 -0.0008307857003192753
0.4402682440156673 0.994573907696356 0.0006442451584657203
0.42599809439861724 0.9989876753222202 0.002130928512905389
0.4117260758639026 1.003387984022151 0.003626956106721121
0.397453314894489 1.0077786518457323 0.005131247140514065
0.38318076004772245 1.0121626061809876 0.006643792357194843
0.36890921932787807 1.016542042551996 0.008165480427314145
0.3546393890547296 1.0209185672412862 0.009697910703840571
0.34037187399789304 1.0252933187442224 0.011243195859097858
0.32610719823262 1.0296670641674044 0.0128037573158686
0.31184580601291406 1.0340402677688088 0.014382115837975964
0.29758805195878335 1.0384131298688912 0.015980679241330623
0.28333418001742855 1.0427855953213425 0.017601528989753222
0.2690842909839085 1.0471573316163758 0.01924620748410502
0.2548382988566819 1.0515276775034899 0.02091550813542477
0.24059587695707665 1.0558955637712542 0.022609270794102396
0.2263563955522133 1.060259408511066 0.024326185717889852
0.21211885366835187 1.0646169898147735 0.026063609910470006
0.19788180882778258 1.068965299400903 0.027817400250344283
0.18364330952767244 1.0733003811183752 0.02958176826759683
0.1694008363243756 1.077617158636217 0.031349161652929614
0.1551512582982789 1.0819092569096476 0.03311017758425886
0.140890812354273 1.0861688222662427 0.03485351277257645
0.1266151131678043 1.0903863462700736 0.03656595485827779
0.11231920153181639 1.0945504990272494 0.038232419570570164
0.0979976383169197 1.0986479784544643 0.03983603804536375
0.08364465013824265 1.1026633834117194 0.041358298996405696
0.06925433100874287 1.106579120637903 0.04277925107613863
0.05482090157772782 1.1103753581702225 0.04407777162397545
0.04033902377170092 1.1140300412556443 0.04523190875388324
0.025804163508515745 1.1175189902941431 0.04621930381235498
0.01121298744235833 1.1208161033514112 0.047017699832787786
-0.003436228553015208 1.123893687077515 0.04760553774418334
-0.018143210727849392 1.126722937896876 0.04796263479942757
-0.032905359212896036 1.1292745883178903 0.048070928367889586
-0.04771752733584431 1.1315197196381117 0.04791525313476531
-0.06257195673046584 1.1334307217172102 0.04748410249846979
-0.07745840891114117 1.1349823543283073 0.04677030891043439
-0.09236451569424046 1.1361528369695215 0.045771567890780185
-0.1072763423725446 1.1369248714586366 0.04449073166044015
-0.12217912317917154 1.1372864916380117 0.042935814323371145
-0.13705809607487338 1.137231642837209 0.04111968114235963
-0.1518993423301844 1.136760421508239 0.039059434668517946
-0.16669053267257547 1.1358789477162246 0.03677555139180697
-0.18142149760857154 1.1345988900801138 0.034290854326780335
-0.19608457044136654 1.1329367030906305 0.031629422430747865
-0.21067468874904355 1.130912662055197 0.0288155350924466
-0.22518927425688864 1.1285497882280378 0.025872732535998262
-0.2396279353640362 1.1258727484222917 0.02282304746308581
-0.25399204849500534 1.122906795380277 0.019686436555310015
-0.26828427511884884 1.1196767938479981 0.01648041769294144
-0.2825080640472761 1.1162063577008696 0.013219902367888905
-0.2966671772816513 1.1125171083979397 0.009917202913873237
-0.31076526534720267 1.1086280552478938 0.006582189581367728
-0.3248055067473529 1.1045550928432688 0.0032225714058761066
-0.3387903168786153 1.100310609344126 -0.00015572433788175067
-0.3527211247264645 1.0959031997969517 -0.003548097694010263
-0.36659821077165655 1.0913374803275975 -0.006950768509853684
-0.38042059647689563 1.0866140011506518 -0.010360236330539948
-0.3941859741963171 1.081729258493742 -0.013772727122544605
-0.40789066612997465 1.0766758075542837 -0.017183645571880846
-0.421529601906079 1.0714424803995046 -0.020587051449893257
-0.4350963064796522 1.0660147141960687 -0.023975178779295836
-0.4485828933114877 1.060374996121521 -0.027338017368474344
-0.461980062263942 1.0545034313876895 -0.030662977787657503
-0.47527710726817773 1.0483784393647895 -0.03393466297233312
-0.4884619453304705 1.0419775789327324 -0.03713477200386548
-0.5015211852544711 1.0352784968176272 -0.04024216342512511
-0.5144402604613916 1.0282599807870252 -0.04323310531000766
-0.5272036537992651 1.0209030827357433 -0.04608173527065919
-0.539795241060138 1.0131922557297914 -0.048760743453088576
-0.5521987718280092 1.0051164268442323 -0.051242273599949886
-0.5643984898347288 0.9966699093788107 -0.053499011275321286
-0.5763798707869986 0.9878530508271626 -0.05550539693668804
-0.5881304272614857 0.9786725237334251 -0.05723887066370854
-0.5996405044732973 0.9691411989434389 -0.058681033562880236
-0.6109039757782663 0.9592775920615987 -0.0598186067265789
-0.621918749391134 0.9491049341124129 -0.06064408700349393
-0.6326870198188476 0.9386499715363462 -0.061156037889243786
-0.6432152342634909 0.927941634365442 -0.06135900469797473
-0.6535137860345813 0.9170097167732636 -0.06126309300469956
-0.6635964829753304 0.9058836925398889 -0.060883286386870614
-0.6734798612728045 0.8945917485130014 -0.060238597250897155
-0.6831824213754679 0.8831600743012762 -0.059351143164082465
-0.6927238556384496 0.8716124069548614 -0.058245225840802335
-0.7021243220530238 0.8599698014718835 -0.05694646795484447
-0.7114038005190112 0.8482505829950987 -0.05548104068135648
-0.7205815516797527 0.8364704325275844 -0.05387499645715417
-0.7296756854895667 0.824642561427472 -0.05215370859134231
-0.7387028378868429 0.8127779373756148 -0.05034141192987261
-0.7476779486337258 0.8008855332663872 -0.048460835635416505
-0.7566141305685892 0.7889725788407631 -0.04653291881691894
-0.7655226192214291 0.7770448019803283 -0.04457660086617173
-0.7744127912165611 0.765106652103182 -0.042608679882086636
-0.7832922396775794 0.7531615020781138 -0.04064373381205997
-0.7921668947641161 0.7412118276997354 -0.03869409958735644
-0.8010411774984166 0.7292593653056215 -0.0367699055293442
-0.8099181752640984 0.7173052488362669 -0.034879151802770444
-0.8187998278755416 0.7053501277904791 -0.03302783294133455
-0.8276871139805759 0.693394267331786 -0.031220095740110955
-0.8365802287645614 0.6814376314359217 -0.029458425324210585
-0.8454787454023299 0.6694799495733932 -0.027743852102791323
-0.8543817543462966 0.657520767089633 -0.026076172641780016
-0.8632879762209373 0.6455594792343792 -0.024454178187387886
-0.872195845703914 0.6335953487258582 -0.022875885531927227
-0.8811035652290634 0.6216275068161451 -0.02133876598874929
-0.8900091285983075 0.6096549380410915 -0.019839969289368244
-0.898910315622931 0.5976764491763561 -0.018376540111667714
-0.9078046597384876 0.5856906233654589 -0.01694562561012084
-0.9166893911739208 0.5736957609235103 -0.015544672707156126
-0.925561358729925 0.5616898089390565 -0.014171614020756555
-0.9344169335566589 0.5496702824815412 -0.01282504118364996
-0.9432518985340848 0.5376341809524985 -0.011504364015850562
-0.9520613269639808 0.5255779038653429 -0.010209953620446284
-0.9608394542985726 0.5134971710628075 -0.008943267059560393
-0.9695795465849448 0.5013869530363253 -0.00770695090016031
-0.9782737692433713 0.4892414175476405 -0.006504920644075586
-0.9869130597910643 0.4770538991197248 -0.005342412892193721
-0.995487008263731 0.4648168981152116 -0.00422600702990636
-1.0039837494858874 0.4525221160121032 -0.00316361322780913
-1.0123898721099842 0.44016053307087455 -0.0021644235887170685
-1.0206903505764962 0.4277225338007149 -0.0012388233131973886
-1.0288685078819166 0.41519808438061157 -0.00039825881541652496
-1.036906019224503 0.40257696433407464 0.00034494011851105423
-1.0447829690306103 0.3898490521107247 0.0009777866041331081
-1.0524779761544711 0.3770046605899184 0.0014869128632190947
-1.0599684035622907 0.36403491373083235 0.0018588959938514143
-1.067230668686925 0.3509321496433425 0.0020806298223623944
-1.074240667828091 0.3376903285427193 0.002139734709705246
-1.0809743214438194 0.32430541713964844 0.002024991001272388
-1.08740823624762 0.3107757153239985 0.0017267745201039247
-1.09352046481382 0.29710208832950863 0.0012374651470477421
-1.0992913252883194 0.2832880698639696 0.0005517937643938498
-1.1047042256900914 0.2693398104101485 -0.00033290930158583404
-1.1097464232806216 0.25526586021625264 -0.0014165978444798614
-1.1144096439602267 0.24107679666465381 -0.0026965490288589915
-1.1186904928080714 0.22678472706156633 -0.004167566335717876
-1.1225906052434733 0.2124027156416274 -0.005822335099277409
-1.126116516021832 0.19794419334369373 -0.0076519007063526575
-1.129279254797306 0.18342240829301013 -0.009646224901645321
-1.13209370569233 0.16884996440780206 -0.011794768039266495
-1.1345777887759319 0.15423847824114914 -0.01408704542523407
-1.136751530861131 0.1395983645456818 -0.016513112981462953
-1.1386360919712952 0.12493874337741502 -0.01906394885969603
-1.1402528048977256 0.11026744871742883 -0.02173171052249286
-1.1416222721542633 0.09559111166508247 -0.02450985886407157
-1.1427635507425564 0.0809152897972547 -0.027393150774897703
-1.1436934428808918 0.06624461695506427 -0.03037750870720075
-1.1444259014386102 0.05158295291921043 -0.03345978049605367
-1.144971552491168 0.036933518760437045 -0.03663740549005552
-1.1453373337811026 0.02229901007866394 -0.039908004560552955
-1.1455262462798892 0.00768168624213574 -0.043268912292570336
-1.1455372158216592 -0.006916561222108336 -0.04671666995354255
-1.145365062378205 -0.02149415389883267 -0.0502464978868398
-1.1450005756079678 -0.03604977526414873 -0.05385176591264358
-1.1444306966604147 -0.05058231099309118 -0.05752348027237739
-1.1436388077962454 -0.06509076822220634 -0.06124980583011005
-1.1426051331695484 -0.07957416199372942 -0.06501564295190364
-1.141307255990831 -0.09403135950995437 -0.06880228010229772
-1.139720758881944 -0.10846087708575086 -0.0725871460770536
-1.1378199947754333 -0.12286063106666019 -0.07634369006453574
-1.1355789939233312 -0.13722765266082462 -0.08004142303144968
-1.1329725067005363 -0.1515577875312457 -0.08364615907622651
-1.1299771699410102 -0.1658454134530362 -0.08712049808813635
-1.1265727650001767 -0.18008322172078733 -0.09042458781856941
-1.1227435086061324 -0.19426211732028636 -0.09351719010427387
-1.1184792857772161 -0.20837129486329664 -0.0963570487908869
-1.113776704567338 -0.2223985371377571 -0.09890451486914822
-1.1086398358059937 -0.23633075749728205 -0.10112333164104524
-1.10308050905633 -0.25015476698773725 -0.10298243030616243
-1.0971180763825645 -0.2638581991581963 -0.10445755051185218
-1.090778626034854 -0.277430482919155 -0.10553249750026149
-1.084093714158715 -0.29086373136344745 -0.1061998860067175
-1.077098760551548 -0.30415342199709183 -0.10646129546071958
-1.0698313013071465 -0.31729878073497964 -0.10632685189941325
-1.0623292947461098 -0.3303028368156015 -0.10581433374991941
-1.0546296408448985 -0.3431721714456446 -0.10494795056215421
-1.0467670143695211 -0.3559164246450997 -0.10375695782513465
-1.0387730479069757 -0.3685476451863254 -0.10227425243691583
-1.0306758485297498 -0.38107956879649596 -0.10053505549126505
-1.0224997983363435 -0.3935268963273636 -0.0985757461101443
-1.0142655744887654 -0.40590462407572286 -0.0964328725868871
-1.005990324085295 -0.41822745895093266 -0.0941423402398979
-0.9976879374782464 -0.43050933516119444 -0.09173875977323331
-0.9893693754894494 -0.44276303758925845 -0.08925493362916495
-0.9810430180084277 -0.4549999296075628 -0.08672145786338799
-0.9727150118531471 -0.4672297786520458 -0.08416642063892871
-0.964389603851056 -0.47946067029363965 -0.08161518327324394
-0.9560694508731454 -0.4916989999409789 -0.07909023434849193
-0.9477559023795893 -0.5039495301614654 -0.07661111082301071
-0.9394492533774191 -0.5162155007289927 -0.07419438200909771
-0.9311489670006596 -0.528498777926693 -0.07185369275481657
-0.9228538665834243 -0.5408000294867787 -0.0695998615043607
-0.9145622974004788 -0.5531189119692516 -0.06744102757858024
-0.906272258404938 -0.5654542584247768 -0.06538284051142887
-0.8979815044303052 -0.5778042558078311 -0.06342868302830668
-0.8896876195141696 -0.5901666036622318 -0.06157991855221154
-0.881388062268889 -0.6025386478907166 -0.059836154103027304
-0.8730801845670291 -0.6149174857279893 -0.05819551008965041
-0.864761225207829 -0.6273000401746908 -0.056654889643272824
-0.8564282806630568 -0.639683103983803 -0.055210241598002405
-0.8480782554463233 -0.6520633547491734 -0.0538568127740699
-0.8397077950947235 -0.6644373437126304 -0.05258938666819436
-0.8313132051859053 -0.6768014616077346 -0.05140250686573264
-0.8228903602306559 -0.6891518852451916 -0.050290684380798166
-0.814434606674002 -0.7014845086778768 -0.049248588681512655
-0.8059406645978624 -0.7137948627229193 -0.048271222392334785
-0.7974025330335648 -0.7260780264211688 -0.04735407964072961
-0.7888134040489226 -0.7383285337340806 -0.0464932878057988
-0.7801655909573494 -0.7505402784679579 -0.04568573211091486
-0.7714504760924392 -0.762706420132751 -0.04492916215362744
-0.7626584835899919 -0.7748192932505726 -0.04422227914281729
-0.7537790825115017 -0.7868703225967913 -0.04356480235569875
-0.7448008254166844 -0.7988499470542606 -0.04295751315781628
-0.7357114271249449 -0.8107475552511588 -0.04240227485522548
-0.7264978878525419 -0.8225514369755346 -0.0419020266706901
-0.7171466640967015 -0.8342487555150584 -0.04146075026044705
-0.7076438894430003 -0.8458255474959695 -0.041083407436664804
-0.6979756457424702 -0.8572667583401252 -0.04077584818124515
-0.68812828266443 -0.8685563228612632 -0.04054468870779949
-0.6780887803255377 -0.8796773013926281 -0.04039716035373271
-0.667845145460343 -0.89061208167019 -0.0403409315702589
-0.6573868265505388 -0.9013426549078353 -0.04038390729659154
-0.6467051278654058 -0.9118509705425061 -0.040534012537113195
-0.6357935972283466 -0.9221193676478816 -0.04079896983693532
-0.6246483585930486 -0.9321310720843591 -0.041186083202395495
-0.6132683594559217 -0.941870737775021 -0.04170204326617736
-0.6016555059038333 -0.9513249995216818 -0.04235276944765703
-0.5898146653211215 -0.960482995590626 -0.043143303831812495
-0.5777535281466407 -0.969336813234715 -0.04407776806146267
-0.5654823341375168 -0.9778818113043637 -0.0451593887559244
-0.5530134829600634 -0.9861167819585395 -0.046390589466618545
-0.5403610608052252 -0.9940439274789871 -0.04777313909881606
-0.527540321754738 -1.0016686460474429 -0.049308339451207196
-0.5145671635904121 -1.0089991388520707 -0.05099722929735718
-0.5014576329065695 -1.016045866811548 -0.05284078002878635
-0.4882274853132973 -1.0228208961816767 -0.054840058436944325
-0.4748918154753819 -1.0293371773667341 -0.05699633529325139
-0.46146476099438904 -1.0356078008090221 -0.05931112320365853
-0.44795927544068614 -1.0416452692579776 -0.061786132901390775
-0.43438696011496475 -1.0474608187879788 -0.06442314297331883
-0.42075794154514995 -1.0530638132644112 -0.06722378350790761
-0.4070807819413883 -1.0584612297186264 -0.07018923905383066
-0.39336241218974605 -1.0636572459104408 -0.07331988048952473
-0.3796080807375428 -1.0686529363988202 -0.0766148388861668
-0.36582131623172337 -1.0734460795843834 -0.08007153715310257
-0.35200390643849344 -1.0780310752029736 -0.08368519711410466
-0.33815590032665127 -1.0823989694566818 -0.0874483406151051
-0.32427564386538754 -1.0865375833268482 -0.09135030333774796
-0.3103598627829849 -1.0904317387456677 -0.09537677939514427
-0.29640380704328223 -1.0940635774450098 -0.09950941397003255
-0.282401471954275 -1.097412968687424 -0.10372546093167906
-0.26834590944508996 -1.100458004786694 -0.10799752342801999
-0.2542296398404917 -1.103175587068769 -0.11229339878679881
-0.24004516891546893 -1.1055421089085227 -0.11657605527684041
-0.22578560634103031 -1.1075342452398889 -0.12080377728892731
-0.21144536887067164 -1.1091298573061399 -0.12493052601816503
-0.1970209339972237 -1.1103090146739178 -0.12890657178653214
-0.1825115875317355 -1.1110551209378583 -0.1326794567207535
-0.16792008392118735 -1.1113561034220811 -0.13619533581021448
-0.1532531166761326 -1.1112055916542574 -0.13940071331675874
-0.1385214871169396 -1.1106039702844264 -0.14224453585138092
-0.12373987365634907 -1.10955916101639 -0.14468052634987563
-0.10892614906886144 -1.1080869806301534 -0.1466695592911934
-0.0941002683384902 -1.1062109522786319 -0.1481818127248362
-0.07928283930972546 -1.1039615187719578 -0.14919841659018904
-0.06449356505458223 -1.1013747065650636 -0.14971236841078756
-0.04974978204156337 -1.0984903892256244 -0.149728601602764
-0.03506529695745726 -1.095350366778543 -0.1492632366493889
-0.020449655017327123 -1.091996491626196 -0.14834217606275965
-0.0059078799884987425 -1.0884690332581068 -0.14699928308642585
0.008559358313882558 -1.0848054021460984 -0.14527439790933783
0.022955248486946574 -1.0810392746709259 -0.1432114051076704
0.03728613371949837 -1.0772000970071594 -0.1408564973771584
0.051560711914565946 -1.0733129065618228 -0.1382567087810733
0.06578922881755876 -1.069398394250612 -0.13545873257004454
0.07998272568719828 -1.0654731330927143 -0.13250800067606644
0.09415237840873049 -1.0615499104600774 -0.12944798321711648
0.10830894628852357 -1.057638116418438 -0.1263196620395077
0.1224623362610009 -1.0537441548786344 -0.12316113701158901
0.13662128059341797 -1.0498718557758382 -0.12000733283982844
0.15079312171898668 -1.046022874702674 -0.11688978429812683
0.16498369512031488 -1.0421970716513773 -0.11383648686130936
0.17919729925331943 -1.0383928634448294 -0.11087180668457014
0.193436739870842 -1.0346075458152044 -0.10801644823323407
0.20770343469223393 -1.030837581613986 -0.10528747969858665
0.2219975633283208 -1.0270788518598635 -0.10269841604594572
0.23631824695115164 -1.023326866633819 -0.10025935776946224
0.25066374258657675 -1.0195769334257803 -0.09797718091411117
0.26503163816515624 -1.0158242814867062 -0.09585577137981287
0.27941903649678485 -1.0120641419918095 -0.09389629451378718
0.2938227189107634 -1.0082917852526159 -0.09209748987569723
0.3082392821292533 -1.0045025176799909 -0.09045598093704194
0.3226652447189988 -1.0006916425597674 -0.08896659025314722
0.33709712194746805 -0.9968543898534227 -0.08762265208098258
0.3515314698931356 -0.9929858211168701 -0.08641631620307408
0.36596490115392855 -0.9890807162193902 -0.08533883855964461
0.38039407546882364 -0.9851334488513762 -0.084380855950043
0.39481566907582305 -0.9811378578631963 -0.08353264338780571
0.409226326766122 -0.9770871213177368 -0.08278435361614825
0.423622600461275 -0.9729736398095514 -0.08212623882110917
0.43800087783746067 -0.9687889351478164 -0.08154885477883313
